##TITLE=Export Data
##JCAMP-DX=5.0    $$ Pro-Data v. 4.2
##DATATYPE=SPECTRUM
##ORIGIN=Applied Photophysics
##OWNER=james.law
##DATE=17/10/01
##TIME=10:40:43
##DATACLASS=XYDATA
##XUNITS=NANOMETERS
##YUNITS=ARBITRARY UNITS
##XLABEL=
##XFACTOR=1.00000
##YFACTOR=0.000001
##FIRSTX=700.000000
##LASTX=200.000000
##MAXY=2713.947754
##MINY=-711.097107
##NPOINTS=501
##FIRSTY=-0.413669
##REPEAT=10.000000
##XYDATA=(X++(Y..Y))
700.0000 -413668
699.0000 -435889
698.0000 -359495
697.0000 -394962
696.0000 -364505
695.0000 -391856
694.0000 -384459
693.0000 -338638
692.0000 -405924
691.0000 -372297
690.0000 -380318
689.0000 -372593
688.0000 -373898
687.0000 -392789
686.0000 -376080
685.0000 -388224
684.0000 -405819
683.0000 -376035
682.0000 -399768
681.0000 -392209
680.0000 -409616
679.0000 -432805
678.0000 -390484
677.0000 -398959
676.0000 -375294
675.0000 -403260
674.0000 -421950
673.0000 -392476
672.0000 -384240
671.0000 -354731
670.0000 -406389
669.0000 -380901
668.0000 -383803
667.0000 -367866
666.0000 -365846
665.0000 -375514
664.0000 -388106
663.0000 -395459
662.0000 -371789
661.0000 -352436
660.0000 -405923
659.0000 -384813
658.0000 -408785
657.0000 -372553
656.0000 -396587
655.0000 -382347
654.0000 -375558
653.0000 -394898
652.0000 -365662
651.0000 -403164
650.0000 -407271
649.0000 -366696
648.0000 -365091
647.0000 -344356
646.0000 -365582
645.0000 -340925
644.0000 -384816
643.0000 -392268
642.0000 -324838
641.0000 -425828
640.0000 -363656
639.0000 -338708
638.0000 -316786
637.0000 -387381
636.0000 -390747
635.0000 -358927
634.0000 -341002
633.0000 -341818
632.0000 -385590
631.0000 -365206
630.0000 -351258
629.0000 -377394
628.0000 -359076
627.0000 -372251
626.0000 -369638
625.0000 -362904
624.0000 -334981
623.0000 -369979
622.0000 -381839
621.0000 -379731
620.0000 -356917
619.0000 -374410
618.0000 -363066
617.0000 -381454
616.0000 -354646
615.0000 -364815
614.0000 -355075
613.0000 -370466
612.0000 -376237
611.0000 -366110
610.0000 -375087
609.0000 -365719
608.0000 -341631
607.0000 -404612
606.0000 -372097
605.0000 -398702
604.0000 -339858
603.0000 -362008
602.0000 -373167
601.0000 -344789
600.0000 -381722
599.0000 -349798
598.0000 -370751
597.0000 -359768
596.0000 -366491
595.0000 -348127
594.0000 -374782
593.0000 -364875
592.0000 -374990
591.0000 -343426
590.0000 -363882
589.0000 -372581
588.0000 -416331
587.0000 -404723
586.0000 -359045
585.0000 -367142
584.0000 -373036
583.0000 -388171
582.0000 -375878
581.0000 -388930
580.0000 -380686
579.0000 -369479
578.0000 -395036
577.0000 -400822
576.0000 -390102
575.0000 -390668
574.0000 -379781
573.0000 -377291
572.0000 -392422
571.0000 -391402
570.0000 -366812
569.0000 -382875
568.0000 -405714
567.0000 -427404
566.0000 -379915
565.0000 -403276
564.0000 -422873
563.0000 -377956
562.0000 -432159
561.0000 -406507
560.0000 -384351
559.0000 -401055
558.0000 -385687
557.0000 -399721
556.0000 -374667
555.0000 -374666
554.0000 -400547
553.0000 -404822
552.0000 -403966
551.0000 -393894
550.0000 -421537
549.0000 -395610
548.0000 -418842
547.0000 -430451
546.0000 -404708
545.0000 -421787
544.0000 -442693
543.0000 -419854
542.0000 -416377
541.0000 -425421
540.0000 -453173
539.0000 -447594
538.0000 -408943
537.0000 -450207
536.0000 -428759
535.0000 -436470
534.0000 -440504
533.0000 -445125
532.0000 -458528
531.0000 -464165
530.0000 -461530
529.0000 -458993
528.0000 -503296
527.0000 -504338
526.0000 -518832
525.0000 -551781
524.0000 -592881
523.0000 -618097
522.0000 -683042
521.0000 -743536
520.0000 -783286
519.0000 -884037
518.0000 -966575
517.0000 -1034349
516.0000 -1210805
515.0000 -1368159
514.0000 -1552131
513.0000 -1771924
512.0000 -2034115
511.0000 -2359117
510.0000 -2796993
509.0000 -3192919
508.0000 -3947244
507.0000 -4602421
506.0000 -5537021
505.0000 -6696163
504.0000 -8174035
503.0000 -9911104
502.0000 -12243116
501.0000 -15194255
500.0000 -18823102
499.0000 -22727294
498.0000 -27927774
497.0000 -33870488
496.0000 -41289708
495.0000 -49556948
494.0000 -59879056
493.0000 -70896816
492.0000 -81780000
491.0000 -93349544
490.0000 -106313368
489.0000 -117671864
488.0000 -129054136
487.0000 -138049728
486.0000 -145893376
485.0000 -151828544
484.0000 -155533632
483.0000 -158282320
482.0000 -159446576
481.0000 -159976192
480.0000 -159934960
479.0000 -159576096
478.0000 -159089168
477.0000 -158543216
476.0000 -158159200
475.0000 -158019216
474.0000 -158207824
473.0000 -158389856
472.0000 -158432800
471.0000 -158473488
470.0000 -158352208
469.0000 -158035696
468.0000 -157716912
467.0000 -157132576
466.0000 -155938896
465.0000 -154199456
464.0000 -152214928
463.0000 -149619136
462.0000 -146943184
461.0000 -144081344
460.0000 -141296224
459.0000 -138610080
458.0000 -136040656
457.0000 -133804384
456.0000 -131435104
455.0000 -129393768
454.0000 -126983664
453.0000 -124344608
452.0000 -121092904
451.0000 -116985952
450.0000 -113257824
449.0000 -109319576
448.0000 -104452992
447.0000 -100246552
446.0000 -95807520
445.0000 -91707336
444.0000 -87217256
443.0000 -83540608
442.0000 -79305264
441.0000 -76019512
440.0000 -71775624
439.0000 -68403680
438.0000 -64569748
437.0000 -61549532
436.0000 -57772780
435.0000 -54872092
434.0000 -51610712
433.0000 -48723816
432.0000 -45723692
431.0000 -43075092
430.0000 -40364620
429.0000 -37952820
428.0000 -35874416
427.0000 -33469162
426.0000 -31542990
425.0000 -29677384
424.0000 -27902732
423.0000 -26062846
422.0000 -24391312
421.0000 -22672462
420.0000 -21125576
419.0000 -19602534
418.0000 -18137068
417.0000 -16808790
416.0000 -15620917
415.0000 -14394354
414.0000 -13319196
413.0000 -12316128
412.0000 -11424665
411.0000 -10508719
410.0000 -9749250
409.0000 -8966636
408.0000 -8271996
407.0000 -7624462
406.0000 -7044276
405.0000 -6475134
404.0000 -5972443
403.0000 -5487597
402.0000 -5070403
401.0000 -4706909
400.0000 -4315542
399.0000 -4035661
398.0000 -3747374
397.0000 -3438286
396.0000 -3196044
395.0000 -2969919
394.0000 -2738674
393.0000 -2537924
392.0000 -2324592
391.0000 -2172693
390.0000 -2014189
389.0000 -1904405
388.0000 -1758941
387.0000 -1664426
386.0000 -1544086
385.0000 -1465112
384.0000 -1349770
383.0000 -1297859
382.0000 -1212953
381.0000 -1119463
380.0000 -1061902
379.0000 -1009527
378.0000 -937779
377.0000 -894425
376.0000 -853632
375.0000 -811465
374.0000 -787101
373.0000 -759458
372.0000 -719170
371.0000 -689470
370.0000 -691738
369.0000 -642664
368.0000 -619721
367.0000 -604234
366.0000 -562338
365.0000 -569848
364.0000 -546000
363.0000 -540705
362.0000 -490740
361.0000 -485570
360.0000 -456508
359.0000 -466438
358.0000 -430073
357.0000 -411521
356.0000 -384492
355.0000 -351190
354.0000 -325085
353.0000 -269011
352.0000 -183887
351.0000 -87814
350.0000 73089
349.0000 286450
348.0000 589415
347.0000 1109637
346.0000 1872538
345.0000 3079375
344.0000 4826632
343.0000 7064906
342.0000 9412615
341.0000 11396536
340.0000 12808625
339.0000 13708877
338.0000 14085017
337.0000 13850572
336.0000 13285075
335.0000 12660337
334.0000 12131826
333.0000 11723592
332.0000 11735820
331.0000 12343308
330.0000 13521804
329.0000 15412078
328.0000 18005460
327.0000 22027186
326.0000 27764992
325.0000 35323676
324.0000 43686044
323.0000 50207944
322.0000 54753536
321.0000 57066740
320.0000 57094256
319.0000 55062164
318.0000 52219008
317.0000 49245908
316.0000 46531912
315.0000 45018908
314.0000 45395272
313.0000 47676984
312.0000 51891192
311.0000 57954468
310.0000 67235432
309.0000 79412104
308.0000 93323248
307.0000 104292624
306.0000 110654392
305.0000 112883984
304.0000 110555952
303.0000 104998936
302.0000 97832512
301.0000 91093968
300.0000 85742416
299.0000 83747840
298.0000 85372240
297.0000 89952232
296.0000 97854576
295.0000 109293504
294.0000 123008880
293.0000 135274064
292.0000 142041696
291.0000 143017040
290.0000 138746688
289.0000 130388704
288.0000 120262536
287.0000 110489920
286.0000 103041176
285.0000 100221424
284.0000 101487664
283.0000 106105536
282.0000 113616072
281.0000 123148080
280.0000 130021008
279.0000 131848648
278.0000 128867232
277.0000 121506360
276.0000 111356984
275.0000 100469904
274.0000 90893216
273.0000 84983848
272.0000 82921968
271.0000 83528224
270.0000 85884392
269.0000 88159384
268.0000 87749112
267.0000 83730080
266.0000 76136232
265.0000 66075308
264.0000 54708984
263.0000 43585704
262.0000 34277948
261.0000 27154294
260.0000 20672758
259.0000 14253899
258.0000 6622567
257.0000 -3351845
256.0000 -15923131
255.0000 -30800304
254.0000 -48075468
253.0000 -65890288
252.0000 -83516656
251.0000 -101481296
250.0000 -120233048
249.0000 -139860208
248.0000 -161482560
247.0000 -183672624
246.0000 -209199616
245.0000 -232323744
244.0000 -229969712
243.0000 -208060816
242.0000 -217683856
241.0000 -207943808
240.0000 -177038128
239.0000 -228869792
238.0000 53875956
237.0000 -390016864
236.0000 88632312
235.0000 -8101027
234.0000 7929362
233.0000 -2143128
232.0000 23735090
231.0000 -11455696
230.0000 -13978683
229.0000 4704036
228.0000 15443071
227.0000 -8179536
226.0000 -4425939
225.0000 35725144
224.0000 85009880
223.0000 75979776
222.0000 114847640
221.0000 -448453696
220.0000 23470152
219.0000 30917760
218.0000 9088127
217.0000 84493544
216.0000 216161600
215.0000 -711097088
214.0000 75758168
213.0000 -156194128
212.0000 -2147483648
211.0000 -79006768
210.0000 -80690920
209.0000 -144242976
208.0000 5217807
207.0000 1145098
206.0000 -79867440
205.0000 -86814136
204.0000 3262199
203.0000 -43455252
202.0000 23303696
201.0000 -37233796
200.0000 -47640736
##END=
